Original distance,Distance without correction,Distance with temperature and huminity correction
2,3,3.7
4,4,4.8
6,6,6.2
8,8,8.6
10,10,10.1
12,12,12.6
14,14,14.5
16,16,16.5
18,18,18.5
20,20,20.3
22,22,22.6
24,24,24.1
26,26,26.6
28,28,28.6
30,30,29.8
32,32,31.7
34,34,34.4
36,36,36.3
38,38,37.8
40,40,39.6
